#GRM219R61E475KA73,,
#In Production,,
#2025/05/05,,
#c_dcbias_capacitance,,
#capacitance  25.0degC  AC0.01Vrms,,
DC Bias[V],Capacitance[F],
0.0,3.181743529821263E-6,
0.125,3.2321525272191266E-6,
0.25,3.273320583109665E-6,
0.375,3.305729093230603E-6,
0.5,3.329897517113608E-6,
0.625,3.34636936280614E-6,
0.75,3.3557002183713503E-6,
0.875,3.3584477220647358E-6,
1.0,3.355163324297394E-6,
1.125,3.3463856718681063E-6,
1.25,3.33263543482356E-6,
1.375,3.3144113955186755E-6,
1.5,3.292187625343406E-6,
1.625,3.2664115849997384E-6,
1.75,3.2375029974422453E-6,
1.875,3.2058533573232983E-6,
2.0,3.1718259560282816E-6,
2.125,3.135756316439548E-6,
2.25,3.097952945945471E-6,
2.375,3.0586983295994476E-6,
2.5,3.018250097552612E-6,
2.625,2.9768423118512002E-6,
2.75,2.934686827395999E-6,
2.875,2.8919746903414283E-6,
3.0,2.8488775445434405E-6,
3.125,2.8055490229309945E-6,
3.25,2.7621261059835674E-6,
3.375,2.718730433945857E-6,
3.5,2.6754695631036373E-6,
3.625,2.6324381594816895E-6,
3.75,2.589719125791074E-6,
3.875,2.5473846594351563E-6,
4.0,2.505497240955205E-6,
4.125,2.4641105535192476E-6,
4.25,2.4232703349940663E-6,
4.375,2.3830151648378437E-6,
4.5,2.3433771885489796E-6,
4.625,2.3043827827522397E-6,
4.75,2.266053164212832E-6,
4.875,2.2284049461826975E-6,
5.0,2.191450645514922E-6,
5.125,2.1551991439495804E-6,
5.25,2.1196561068994122E-6,
5.375,2.0848243629496357E-6,
5.5,2.050704247150772E-6,
5.625,2.017293911029591E-6,
5.75,1.9845896020797174E-6,
5.875,1.952585915324951E-6,
6.0,1.921276019378416E-6,
6.125,1.8906518592528598E-6,
6.25,1.8607043380139507E-6,
6.375,1.831423479208739E-6,
6.5,1.8027985718522726E-6,
6.625,1.774818299611126E-6,
6.75,1.747470855686356E-6,
6.875,1.7207440447734398E-6,
7.0,1.6946253733562554E-6,
7.125,1.669102129483555E-6,
7.25,1.6441614530731223E-6,
7.375,1.6197903976953358E-6,
7.5,1.595975984699566E-6,
7.625,1.5727052504693981E-6,
7.75,1.5499652875155931E-6,
7.875,1.5277432800528156E-6,
8.0,1.506026534640095E-6,
8.125,1.4848025064149618E-6,
8.25,1.46405882139281E-6,
8.375,1.4437832952632482E-6,
8.5,1.423963949069169E-6,
8.625,1.4045890221173448E-6,
8.75,1.385646982432868E-6,
8.875,1.3671265350412463E-6,
9.0,1.349016628330807E-6,
9.125,1.331306458722287E-6,
9.25,1.3139854738514947E-6,
9.375,1.2970433744466102E-6,
9.5,1.28047011506498E-6,
9.625,1.2642559038362402E-6,
9.75,1.2483912013427162E-6,
9.875,1.2328667187545967E-6,
10.0,1.217673415324326E-6,
10.125,1.2028024953339086E-6,
10.25,1.1882454045783379E-6,
10.375,1.1739938264578217E-6,
10.5,1.1600396777462637E-6,
10.625,1.1463751040930032E-6,
10.75,1.1329924753092487E-6,
10.875,1.1198843804856901E-6,
11.0,1.107043622980922E-6,
11.125,1.094463215315224E-6,
11.25,1.0821363740026552E-6,
11.375,1.0700565143467814E-6,
11.5,1.0582172452251323E-6,
11.625,1.0466123638816176E-6,
11.75,1.0352358507466037E-6,
11.875,1.0240818642986326E-6,
12.0,1.0131447359812206E-6,
12.125,1.0024189651867955E-6,
12.25,9.918992143166913E-7,
12.375,9.815803039250147E-7,
12.5,9.714572079537875E-7,
12.625,9.615250490638152E-7,
12.75,9.517790940665819E-7,
12.875,9.422147494597538E-7,
13.0,9.328275570693914E-7,
13.125,9.236131898003006E-7,
13.25,9.145674474961065E-7,
13.375,9.056862529092501E-7,
13.5,8.969656477812922E-7,
13.625,8.88401789033119E-7,
13.75,8.799909450643278E-7,
13.875,8.717294921610239E-7,
14.0,8.636139110103324E-7,
14.125,8.556407833205908E-7,
14.25,8.478067885453052E-7,
14.375,8.401087007087411E-7,
14.5,8.325433853318398E-7,
14.625,8.25107796455667E-7,
14.75,8.177989737605133E-7,
14.875,8.106140397785E-7,
15.0,8.035501971971144E-7,
15.125,7.966047262515182E-7,
15.25,7.897749822031924E-7,
15.375,7.830583929024095E-7,
15.5,7.764524564326806E-7,
15.625,7.699547388343036E-7,
15.75,7.635628719043564E-7,
15.875,7.57274551072035E-7,
16.0,7.510875333458656E-7,
16.125,7.449996353309758E-7,
16.25,7.390087313141965E-7,
16.375,7.331127514147542E-7,
16.5,7.273096797989437E-7,
16.625,7.215975529554072E-7,
16.75,7.159744580304292E-7,
16.875,7.104385312206239E-7,
17.0,7.049879562207885E-7,
17.125,6.996209627254759E-7,
17.25,6.943358249824359E-7,
17.375,6.89130860395811E-7,
17.5,6.840044281777805E-7,
17.625,6.789549280467472E-7,
17.75,6.739807989702669E-7,
17.875,6.690805179517606E-7,
18.0,6.642525988582563E-7,
18.125,6.594955912895783E-7,
18.25,6.548080794855239E-7,
18.375,6.501886812712275E-7,
18.5,6.4563604703807E-7,
18.625,6.411488587603906E-7,
18.75,6.367258290449498E-7,
18.875,6.323657002134785E-7,
19.0,6.280672434163025E-7,
19.125,6.238292577760506E-7,
19.25,6.19650569560674E-7,
19.375,6.155300313843636E-7,
19.5,6.114665214355649E-7,
19.625,6.074589427310062E-7,
19.75,6.035062223948768E-7,
19.875,5.996073109623096E-7,
20.0,5.957611817062136E-7,
20.125,5.919668299864164E-7,
20.25,5.882232726209524E-7,
20.375,5.845295472777029E-7,
20.5,5.808847118868515E-7,
20.625,5.772878440723274E-7,
20.75,5.737380406022874E-7,
20.875,5.702344168575718E-7,
21.0,5.667761063176166E-7,
21.125,5.633622600634712E-7,
21.25,5.599920462966689E-7,
21.375,5.566646498738209E-7,
21.5,5.5337927185683E-7,
21.625,5.501351290769797E-7,
21.75,5.46931453713575E-7,
21.875,5.437674928860352E-7,
22.0,5.40642508259036E-7,
22.125,5.375557756603034E-7,
22.25,5.345065847107695E-7,
22.375,5.314942384662318E-7,
22.5,5.285180530708436E-7,
22.625,5.255773574209232E-7,
22.75,5.226714928402578E-7,
22.875,5.197998127646266E-7,
23.0,5.169616824372186E-7,
23.125,5.14156478612783E-7,
23.25,5.11383589271642E-7,
23.375,5.086424133422493E-7,
23.5,5.05932360432602E-7,
23.625,5.032528505698457E-7,
23.75,5.006033139479459E-7,
23.875,4.979831906831384E-7,
24.0,4.953919305772089E-7,
24.125,4.928289928875318E-7,
24.25,4.902938461045611E-7,
24.375,4.877859677361741E-7,
24.5,4.853048440982733E-7,
24.625,4.828499701119357E-7,
24.75,4.804208491069184E-7,
24.875,4.780169926308476E-7,
25.0,4.756379202644446E-7,
