#GRM21BR61E226ME44,,
#In Production,,
#2025/05/05,,
#c_dcbias_capacitance,,
#capacitance  25.0degC  AC0.01Vrms,,
DC Bias[V],Capacitance[F],
0.0,1.6856755727767057E-5,
0.125,1.6960994453761617E-5,
0.25,1.7030943282545797E-5,
0.375,1.7068099129808037E-5,
0.5,1.70740935405739E-5,
0.625,1.705066213793206E-5,
0.75,1.6999616156758994E-5,
0.875,1.6922816286545236E-5,
1.0,1.6822148963106562E-5,
1.125,1.669950517553213E-5,
1.25,1.6556761792349487E-5,
1.375,1.639576535914904E-5,
1.5,1.6218318278421217E-5,
1.625,1.6026167250161876E-5,
1.75,1.5820993828083435E-5,
1.875,1.5604406930023943E-5,
2.0,1.5377937131235956E-5,
2.125,1.514303256502909E-5,
2.25,1.4901056255201113E-5,
2.375,1.4653284708597613E-5,
2.5,1.4400907602711517E-5,
2.625,1.4145028411944199E-5,
2.75,1.3886665826467604E-5,
2.875,1.3626755828814654E-5,
3.0,1.3366154305088577E-5,
3.125,1.3105640079720488E-5,
3.25,1.2845918274419342E-5,
3.375,1.2587623903513207E-5,
3.5,1.233132562890156E-5,
3.625,1.2077529608009493E-5,
3.75,1.1826683377884972E-5,
3.875,1.1579179727377184E-5,
4.0,1.1335360517290247E-5,
4.125,1.1095520415737849E-5,
4.25,1.085991052234381E-5,
4.375,1.062874186064459E-5,
4.5,1.0402188723087633E-5,
4.625,1.0180391857358715E-5,
4.75,9.963461486525598E-6,
4.875,9.751480158666364E-6,
5.0,9.544505424341162E-6,
5.125,9.342572342541546E-6,
5.25,9.145695817505883E-6,
5.375,8.953872770343048E-6,
5.5,8.767084150571222E-6,
5.625,8.585296793504034E-6,
5.75,8.408465130174294E-6,
5.875,8.236532756909752E-6,
6.0,8.06943387195113E-6,
6.125,7.907094586699342E-6,
6.25,7.749434119199827E-6,
6.375,7.59636587739912E-6,
6.5,7.447798439619385E-6,
6.625,7.303636439442687E-6,
6.75,7.163781361989224E-6,
6.875,7.028132258261561E-6,
7.0,6.896586384017105E-6,
7.125,6.769039769159788E-6,
7.25,6.645387723379417E-6,
7.375,6.5255252835563405E-6,
7.5,6.409347607847796E-6,
7.625,6.296750321287186E-6,
7.75,6.187629817278415E-6,
7.875,6.081883519104997E-6,
8.0,5.979410105213772E-6,
8.125,5.880109701830444E-6,
8.25,5.783884046134265E-6,
8.375,5.6906366229491625E-6,
8.5,5.600272777742829E-6,
8.625,5.512699808366879E-6,
8.75,5.427827037912447E-6,
8.875,5.34556587072099E-6,
9.0,5.265829833484583E-6,
9.125,5.188534603152889E-6,
9.25,5.113598023249762E-6,
9.375,5.040940110004638E-6,
9.5,4.970483049594129E-6,
9.625,4.902151187671547E-6,
9.75,4.8358710122485805E-6,
9.875,4.771571130804169E-6,
10.0,4.709182242585297E-6,
10.125,4.648637106769534E-6,
10.25,4.589870507194774E-6,
10.375,4.532819214290291E-6,
10.5,4.477421944710372E-6,
10.625,4.423619319188706E-6,
10.75,4.3713538190131795E-6,
10.875,4.320569741504527E-6,
11.0,4.271213154834722E-6,
11.125,4.223231852457155E-6,
11.25,4.176575307439383E-6,
11.375,4.131194626873198E-6,
11.5,4.087042506590351E-6,
11.625,4.0440731863030894E-6,
11.75,4.00224240538798E-6,
11.875,3.961507359302459E-6,
12.0,3.9218266569063486E-6,
12.125,3.8831602785789585E-6,
12.25,3.845469535354267E-6,
12.375,3.8087170290505983E-6,
12.5,3.7728666134251617E-6,
12.625,3.737883356456927E-6,
12.75,3.7037335036708496E-6,
12.875,3.670384442601213E-6,
13.0,3.6378046684011164E-6,
13.125,3.6059637504917127E-6,
13.25,3.5748323003943323E-6,
13.375,3.5443819406050573E-6,
13.5,3.514585274558705E-6,
13.625,3.485415857676419E-6,
13.75,3.4568481694008395E-6,
13.875,3.428857586296228E-6,
14.0,3.401420356069031E-6,
14.125,3.3745135725932777E-6,
14.25,3.3481151518278864E-6,
14.375,3.322203808614923E-6,
14.5,3.2967590343911655E-6,
14.625,3.2717610756289056E-6,
14.75,3.247190913176277E-6,
14.875,3.223030242248875E-6,
15.0,3.1992614532212105E-6,
15.125,3.1758676130920586E-6,
15.25,3.152832447560076E-6,
15.375,3.1301403238026558E-6,
15.5,3.107776233769825E-6,
15.625,3.085725778099191E-6,
15.75,3.063975150534735E-6,
15.875,3.0425111228338353E-6,
16.0,3.0213210301947786E-6,
16.125,3.000392757071492E-6,
16.25,2.9797147234427646E-6,
16.375,2.9592758714862533E-6,
16.5,2.9390656525671376E-6,
16.625,2.9190740146288183E-6,
16.75,2.89929138987415E-6,
16.875,2.8797086827478993E-6,
17.0,2.8603172582202664E-6,
17.125,2.8411089303016752E-6,
17.25,2.8220759508279716E-6,
17.375,2.8032109984492536E-6,
17.5,2.78450716785282E-6,
17.625,2.7659579591627014E-6,
17.75,2.74755726752646E-6,
17.875,2.729299372878572E-6,
18.0,2.7111789298551417E-6,
18.125,2.693190957856428E-6,
18.25,2.6753308312614653E-6,
18.375,2.6575942697493913E-6,
18.5,2.6399773287667055E-6,
18.625,2.6224763901000736E-6,
18.75,2.605088152563456E-6,
18.875,2.5878096227882874E-6,
19.0,2.570638106117542E-6,
19.125,2.5535711976185285E-6,
19.25,2.5366067731548807E-6,
19.375,2.51974298059133E-6,
19.5,2.5029782310719897E-6,
19.625,2.486311190409135E-6,
19.75,2.469740770560068E-6,
19.875,2.453266121193333E-6,
20.0,2.4368866213845207E-6,
20.125,2.4206018713701456E-6,
20.25,2.404411684434797E-6,
20.375,2.388316078903428E-6,
20.5,2.37231527024005E-6,
20.625,2.3564096632509738E-6,
20.75,2.34059984442083E-6,
20.875,2.3248865743599833E-6,
21.0,2.309270780404088E-6,
21.125,2.293753549302816E-6,
21.25,2.2783361200948618E-6,
21.375,2.2630198770815995E-6,
21.5,2.247806342988625E-6,
21.625,2.232697172255195E-6,
21.75,2.2176941444845125E-6,
21.875,2.2027991580691437E-6,
22.0,2.1880142239882567E-6,
22.125,2.173341459757889E-6,
22.25,2.158783083593627E-6,
22.375,2.1443414087220446E-6,
22.5,2.1300188379358735E-6,
22.625,2.115817858286991E-6,
22.75,2.1017410360294487E-6,
22.875,2.0877910117277697E-6,
23.0,2.0739704956197E-6,
23.125,2.0602822631519545E-6,
23.25,2.046729150766172E-6,
23.375,2.0333140519125555E-6,
23.5,2.0200399132403058E-6,
23.625,2.0069097311037065E-6,
23.75,1.993926548231655E-6,
23.875,1.981093450681827E-6,
24.0,1.9684135649935673E-6,
24.125,1.955890055651531E-6,
24.25,1.9435261227436456E-6,
24.375,1.93132499987879E-6,
24.5,1.9192899523902056E-6,
24.625,1.907424275767494E-6,
24.75,1.8957312943691708E-6,
24.875,1.8842143603646116E-6,
25.0,1.8728768530038914E-6,
