#GRT31CR61E226KE01,,
#Not Recommended for New Design,,
#2025/05/05,,
#c_dcbias_capacitance,,
#capacitance  25.0degC  AC0.01Vrms,,
DC Bias[V],Capacitance[F],
0.0,1.7940514503669755E-5,
0.125,1.799684261234295E-5,
0.25,1.803137067492244E-5,
0.375,1.804505564716371E-5,
0.5,1.8038888556367508E-5,
0.625,1.8013884562767128E-5,
0.75,1.7971073854230316E-5,
0.875,1.791149337910764E-5,
1.0,1.783617940931054E-5,
1.125,1.774616091487305E-5,
1.25,1.7642453722596022E-5,
1.375,1.7526055424485945E-5,
1.5,1.7397940996406527E-5,
1.625,1.725905908357791E-5,
1.75,1.7110328907230055E-5,
1.875,1.695263774493611E-5,
2.0,1.678683893728364E-5,
2.125,1.6613750373159562E-5,
2.25,1.6434153407603168E-5,
2.375,1.6248792167198447E-5,
2.5,1.6058373200022373E-5,
2.625,1.5863565429380472E-5,
2.75,1.566500037303356E-5,
2.875,1.546327259192021E-5,
3.0,1.5258940335379087E-5,
3.125,1.5052526352046122E-5,
3.25,1.4844518838781134E-5,
3.375,1.4635372501884937E-5,
3.5,1.4425509708026833E-5,
3.625,1.4215321704016957E-5,
3.75,1.4005169887350856E-5,
3.875,1.3795387111196731E-5,
4.0,1.3586279009481248E-5,
4.125,1.3378125329951664E-5,
4.25,1.317118126412904E-5,
4.375,1.2965678765158104E-5,
4.5,1.276182784577613E-5,
4.625,1.2559817849579272E-5,
4.75,1.2359818690608475E-5,
4.875,1.2161982056661953E-5,
5.0,1.1966442572657716E-5,
5.125,1.1773318921917237E-5,
5.25,1.1582714922942061E-5,
5.375,1.1394720560613582E-5,
5.5,1.1209412970997987E-5,
5.625,1.1026857379334563E-5,
5.75,1.084710799142533E-5,
5.875,1.0670208838791957E-5,
6.0,1.0496194578261238E-5,
6.125,1.0325091246934623E-5,
6.25,1.0156916973765808E-5,
6.375,9.991682648927755E-6,
6.5,9.829392552348673E-6,
6.625,9.670044943015081E-6,
6.75,9.513632610560382E-6,
6.875,9.360143390687968E-6,
7.0,9.209560646160058E-6,
7.125,9.061863714865934E-6,
7.25,8.917028326680217E-6,
7.375,8.775026990725867E-6,
7.5,8.635829354565998E-6,
7.625,8.499402536932306E-6,
7.75,8.365711435387178E-6,
7.875,8.234719010563644E-6,
8.0,8.106386548176451E-6,
8.125,7.980673900408934E-6,
8.25,7.857539707688408E-6,
8.375,7.736941602193001E-6,
8.5,7.618836394622891E-6,
8.625,7.503180244589024E-6,
8.75,7.389928816659552E-6,
8.875,7.279037422161151E-6,
9.0,7.170461148337417E-6,
9.125,7.064154975535341E-6,
9.25,6.960073883251E-6,
9.375,6.858172945842794E-6,
9.5,6.758407418787762E-6,
9.625,6.6607328161248595E-6,
9.75,6.565104979605079E-6,
9.875,6.471480140492177E-6,
10.0,6.379814974249153E-6,
10.125,6.290066649013274E-6,
10.25,6.202192868000183E-6,
10.375,6.116151906600313E-6,
10.5,6.031902644502403E-6,
10.625,5.949404593236177E-6,
10.75,5.868617919537952E-6,
10.875,5.789503464999882E-6,
11.0,5.712022762081307E-6,
11.125,5.636138047072103E-6,
11.25,5.561812270151102E-6,
11.375,5.489009102723272E-6,
11.5,5.4176929425777475E-6,
11.625,5.347828916649696E-6,
11.75,5.2793828820434115E-6,
11.875,5.212321425155165E-6,
12.0,5.146611859369752E-6,
12.125,5.08222222116624E-6,
12.25,5.019121265171643E-6,
12.375,4.957278457873432E-6,
12.5,4.8966639705273776E-6,
12.625,4.837248671089705E-6,
12.75,4.779004115381187E-6,
12.875,4.7219025376531935E-6,
13.0,4.6659168404131596E-6,
13.125,4.611020583989859E-6,
13.25,4.557187975445018E-6,
13.375,4.504393857271886E-6,
13.5,4.452613695713014E-6,
13.625,4.401823568909254E-6,
13.75,4.352000154813525E-6,
13.875,4.303120719061313E-6,
14.0,4.255163102536335E-6,
14.125,4.2081057091242824E-6,
14.25,4.161927493298247E-6,
14.375,4.116607947705846E-6,
14.5,4.072127090879178E-6,
14.625,4.028465454925062E-6,
14.75,3.9856040733402475E-6,
14.875,3.943524468893857E-6,
15.0,3.902208641654567E-6,
15.125,3.861639057160472E-6,
15.25,3.821798634649309E-6,
15.375,3.782670735653328E-6,
15.5,3.7442391524774223E-6,
15.625,3.7064880971342585E-6,
15.75,3.6694021902266013E-6,
15.875,3.632966450219937E-6,
16.0,3.5971662827674948E-6,
16.125,3.5619874703277175E-6,
16.25,3.527416161925894E-6,
16.375,3.493438863164107E-6,
16.5,3.4600424263941514E-6,
16.625,3.427214041153615E-6,
16.75,3.394941224786773E-6,
16.875,3.3632118132337678E-6,
17.0,3.332013952160845E-6,
17.125,3.3013360880451813E-6,
17.25,3.271166959835336E-6,
17.375,3.241495590412196E-6,
17.5,3.2123112785769973E-6,
17.625,3.1836035910408773E-6,
17.75,3.15536235475985E-6,
17.875,3.1275776492666456E-6,
18.0,3.1002397994474808E-6,
18.125,3.0733393682730465E-6,
18.25,3.0468671499325678E-6,
18.375,3.0208141629158813E-6,
18.5,2.99517164342826E-6,
18.625,2.969931039023937E-6,
18.75,2.9450840022776237E-6,
18.875,2.920622384679922E-6,
19.0,2.896538230705606E-6,
19.125,2.872823772109218E-6,
19.25,2.849471422200328E-6,
19.375,2.8264737704644535E-6,
19.5,2.8038235772555156E-6,
19.625,2.78151376858258E-6,
19.75,2.759537431162312E-6,
19.875,2.7378878074791416E-6,
20.0,2.7165582911059913E-6,
20.125,2.6955424220936753E-6,
20.25,2.6748338824391613E-6,
20.375,2.6544264918256394E-6,
20.5,2.634314203335567E-6,
20.625,2.614491099397783E-6,
20.75,2.5949513877630764E-6,
20.875,2.575689397686846E-6,
21.0,2.5566995761495896E-6,
21.125,2.5379764841790237E-6,
21.25,2.5195147933654896E-6,
21.375,2.5013092823845645E-6,
21.5,2.4833548337102542E-6,
21.625,2.4656464302991824E-6,
21.75,2.448179152505139E-6,
21.875,2.4309481750156204E-6,
22.0,2.4139487638916032E-6,
22.125,2.3971762736818513E-6,
22.25,2.3806261446443846E-6,
22.375,2.3642939000564237E-6,
22.5,2.3481751435459106E-6,
22.625,2.3322655565815594E-6,
22.75,2.316560896013273E-6,
22.875,2.3010569916520653E-6,
23.0,2.2857497439462054E-6,
23.125,2.270635121754976E-6,
23.25,2.2557091601551985E-6,
23.375,2.2409679583129065E-6,
23.5,2.226407677450863E-6,
23.625,2.2120245388437245E-6,
23.75,2.19781482195565E-6,
23.875,2.1837748624634213E-6,
24.0,2.1699010505573705E-6,
24.125,2.156189829138499E-6,
24.25,2.1426376921820193E-6,
24.375,2.1292411830157144E-6,
24.5,2.1159968928190655E-6,
24.625,2.102901459061467E-6,
24.75,2.0899515640318577E-6,
24.875,2.0771439333958753E-6,
25.0,2.064475334845106E-6,
